Time (s),EMG Voltage (V)
0,1.44959
0.0001,1.44347
0.0002,1.432841
0.0003,1.430264
0.0004,1.418025
0.0005,1.410294
0.0006,1.406107
0.0007,1.395156
0.0008,1.385171
0.0009,1.375508
0.001,1.362947
0.0011,1.356505
0.0012,1.348452
0.0013,1.343943
0.0014,1.34652
0.0015,1.348774
0.0016,1.35425
0.0017,1.363913
0.0018,1.372931
0.0019,1.380662
0.002,1.392257
0.0021,1.405785
0.0022,1.41416
0.0023,1.422856
0.0024,1.436706
0.0025,1.439283
0.0026,1.453777
0.0027,1.461507
0.0028,1.468271
0.0029,1.476968
0.003,1.484376
0.0031,1.487275
0.0032,1.492751
0.0033,1.494039
0.0034,1.495327
0.0035,1.499192
0.0036,1.500803
0.0037,1.496294
0.0038,1.497582
0.0039,1.495327
0.004,1.495972
0.0041,1.495327
0.0042,1.495005
0.0043,1.495327
0.0044,1.496294
0.0045,1.496616
0.0046,1.493395
0.0047,1.495327
0.0048,1.494361
0.0049,1.493717
0.005,1.48953
0.0051,1.486631
0.0052,1.482766
0.0053,1.482444
0.0054,1.472781
0.0055,1.467305
0.0056,1.465373
0.0057,1.461507
0.0058,1.456676
0.0059,1.451522
0.006,1.445403
0.0061,1.446369
0.0062,1.441538
0.0063,1.440571
0.0064,1.437995
0.0065,1.439605
0.0066,1.435096
0.0067,1.435096
0.0068,1.43574
0.0069,1.432841
0.007,1.434129
0.0071,1.435096
0.0072,1.432841
0.0073,1.435096
0.0074,1.434451
0.0075,1.436062
0.0076,1.438639
0.0077,1.438317
0.0078,1.44347
0.0079,1.441538
0.008,1.445081
0.0081,1.444114
0.0082,1.447979
0.0083,1.447013
0.0084,1.447657
0.0085,1.453455
0.0086,1.452167
0.0087,1.459575
0.0088,1.459575
0.0089,1.462796
0.009,1.465373
0.0091,1.466339
0.0092,1.470204
0.0093,1.472459
0.0094,1.474069
0.0095,1.473425
0.0096,1.477934
0.0097,1.476002
0.0098,1.481477
0.0099,1.48502
0.01,1.489208
0.0101,1.48953
0.0102,1.495005
0.0103,1.499837
0.0104,1.505312
0.0105,1.508211
0.0106,1.511432
0.0107,1.518196
0.0108,1.524316
0.0109,1.526893
0.011,1.533657
0.0111,1.535911
0.0112,1.542353
0.0113,1.545896
0.0114,1.54654
0.0115,1.553949
0.0116,1.558136
0.0117,1.56039
0.0118,1.563611
0.0119,1.564578
0.012,1.565222
0.0121,1.562001
0.0122,1.560068
0.0123,1.562001
0.0124,1.55878
0.0125,1.554915
0.0126,1.557169
0.0127,1.548795
0.0128,1.544286
0.0129,1.545252
0.013,1.539454
0.0131,1.53269
0.0132,1.528181
0.0133,1.526248
0.0134,1.52335
0.0135,1.516908
0.0136,1.510788
0.0137,1.509177
0.0138,1.509822
0.0139,1.504024
0.014,1.496294
0.0141,1.48953
0.0142,1.487597
0.0143,1.482444
0.0144,1.477934
0.0145,1.469882
0.0146,1.465695
0.0147,1.463762
0.0148,1.462152
0.0149,1.456676
0.015,1.455066
0.0151,1.451522
0.0152,1.446047
0.0153,1.449268
0.0154,1.447335
0.0155,1.444759
0.0156,1.44347
0.0157,1.442826
0.0158,1.44347
0.0159,1.446047
0.016,1.441538
0.0161,1.442826
0.0162,1.44186
0.0163,1.439927
0.0164,1.439927
0.0165,1.440571
0.0166,1.444114
0.0167,1.44347
0.0168,1.445725
0.0169,1.447013
0.017,1.448946
0.0171,1.44959
0.0172,1.450556
0.0173,1.453133
0.0174,1.452489
0.0175,1.449912
0.0176,1.449912
0.0177,1.448946
0.0178,1.452167
0.0179,1.442182
0.018,1.439927
0.0181,1.433163
0.0182,1.424144
0.0183,1.41416
0.0184,1.403208
0.0185,1.395478
0.0186,1.386782
0.0187,1.381628
0.0188,1.377119
0.0189,1.373254
0.019,1.375186
0.0191,1.37422
0.0192,1.378729
0.0193,1.381306
0.0194,1.385815
0.0195,1.390325
0.0196,1.396122
0.0197,1.399665
0.0198,1.406429
0.0199,1.412871
0.02,1.418025
0.0201,1.421568
0.0202,1.426399
0.0203,1.428332
0.0204,1.428654
0.0205,1.433807
0.0206,1.435418
0.0207,1.439927
0.0208,1.439927
0.0209,1.441538
0.021,1.445081
0.0211,1.446369
0.0212,1.443792
0.0213,1.446691
0.0214,1.447335
0.0215,1.448624
0.0216,1.447979
0.0217,1.444436
0.0218,1.451522
0.0219,1.453455
0.022,1.454421
0.0221,1.462474
0.0222,1.466983
0.0223,1.473103
0.0224,1.481155
0.0225,1.491462
0.0226,1.500159
0.0227,1.512076
0.0228,1.523027
0.0229,1.533012
0.023,1.546862
0.0231,1.554915
0.0232,1.565222
0.0233,1.57102
0.0234,1.572952
0.0235,1.577784
0.0236,1.571986
0.0237,1.57102
0.0238,1.563933
0.0239,1.557814
0.024,1.548151
0.0241,1.539132
0.0242,1.530436
0.0243,1.520451
0.0244,1.512398
0.0245,1.503702
0.0246,1.494361
0.0247,1.490818
0.0248,1.482766
0.0249,1.476324
0.025,1.466017
0.0251,1.458286
0.0252,1.450234
0.0253,1.440249
0.0254,1.431231
0.0255,1.424144
0.0256,1.40965
0.0257,1.399665
0.0258,1.388392
0.0259,1.378407
0.026,1.368422
0.0261,1.362302
0.0262,1.349741
0.0263,1.342332
0.0264,1.335891
0.0265,1.328482
0.0266,1.323973
0.0267,1.32043
0.0268,1.313344
0.0269,1.310123
0.027,1.305936
0.0271,1.299816
0.0272,1.295951
0.0273,1.289509
0.0274,1.278558
0.0275,1.270183
0.0276,1.262453
0.0277,1.255045
0.0278,1.244094
0.0279,1.233787
0.028,1.221225
0.0281,1.211562
0.0282,1.202221
0.0283,1.196102
0.0284,1.188371
0.0285,1.189982
0.0286,1.182252
0.0287,1.180641
0.0288,1.17581
0.0289,1.174199
0.029,1.17742
0.0291,1.176454
0.0292,1.180963
0.0293,1.181607
0.0294,1.184506
0.0295,1.188693
0.0296,1.18966
0.0297,1.192881
0.0298,1.191914
0.0299,1.193203
0.03,1.198034
0.0301,1.196102
0.0302,1.198034
0.0303,1.200289
0.0304,1.197068
0.0305,1.200611
0.0306,1.19739
0.0307,1.195457
0.0308,1.193203
0.0309,1.194169
0.031,1.199323
0.0311,1.196424
0.0312,1.200933
0.0313,1.203188
0.0314,1.207697
0.0315,1.214461
0.0316,1.220903
0.0317,1.227667
0.0318,1.236041
0.0319,1.24667
0.032,1.257944
0.0321,1.269539
0.0322,1.275981
0.0323,1.284033
0.0324,1.294018
0.0325,1.302715
0.0326,1.307868
0.0327,1.315277
0.0328,1.321396
0.0329,1.329771
0.033,1.334924
0.0331,1.336213
0.0332,1.339756
0.0333,1.343621
0.0334,1.340722
0.0335,1.34201
0.0336,1.338789
0.0337,1.335246
0.0338,1.333314
0.0339,1.324295
0.034,1.315599
0.0341,1.307868
0.0342,1.29885
0.0343,1.288543
0.0344,1.280812
0.0345,1.268573
0.0346,1.257944
0.0347,1.251502
0.0348,1.241517
0.0349,1.236041
0.035,1.228311
0.0351,1.221869
0.0352,1.219615
0.0353,1.217038
0.0354,1.212851
0.0355,1.212206
0.0356,1.218648
0.0357,1.217682
0.0358,1.222835
0.0359,1.22509
0.036,1.234431
0.0361,1.237974
0.0362,1.24667
0.0363,1.2573
0.0364,1.265352
0.0365,1.277269
0.0366,1.284355
0.0367,1.299816
0.0368,1.30819
0.0369,1.32043
0.037,1.33267
0.0371,1.343299
0.0372,1.350385
0.0373,1.354572
0.0374,1.36037
0.0375,1.362947
0.0376,1.362302
0.0377,1.364557
0.0378,1.361658
0.0379,1.362947
0.038,1.365523
0.0381,1.365201
0.0382,1.3681
0.0383,1.371321
0.0384,1.374542
0.0385,1.383561
0.0386,1.389036
0.0387,1.397411
0.0388,1.40192
0.0389,1.406429
0.039,1.413193
0.0391,1.417703
0.0392,1.419313
0.0393,1.422856
0.0394,1.42189
0.0395,1.422212
0.0396,1.418991
0.0397,1.415448
0.0398,1.413515
0.0399,1.406429
0.04,1.40192
0.0401,1.397089
0.0402,1.388714
0.0403,1.380984
0.0404,1.374864
0.0405,1.365201
0.0406,1.361014
0.0407,1.357471
0.0408,1.347486
0.0409,1.34201
0.041,1.336535
0.0411,1.329127
0.0412,1.321074
0.0413,1.317209
0.0414,1.308835
0.0415,1.29885
0.0416,1.296273
0.0417,1.288543
0.0418,1.279524
0.0419,1.273726
0.042,1.267929
0.0421,1.262775
0.0422,1.25279
0.0423,1.245382
0.0424,1.241839
0.0425,1.232498
0.0426,1.226378
0.0427,1.220581
0.0428,1.212528
0.0429,1.207697
0.043,1.197068
0.0431,1.191914
0.0432,1.182252
0.0433,1.172911
0.0434,1.167435
0.0435,1.156806
0.0436,1.150686
0.0437,1.140057
0.0438,1.131683
0.0439,1.120732
0.044,1.107526
0.0441,1.095286
0.0442,1.083369
0.0443,1.06662
0.0444,1.058245
0.0445,1.047938
0.0446,1.031834
0.0447,1.021849
0.0448,1.013152
0.0449,1.002523
0.045,0.996725
0.0451,0.987707
0.0452,0.987385
0.0453,0.985774
0.0454,0.984164
0.0455,0.989317
0.0456,0.993182
0.0457,1.000912
0.0458,1.011219
0.0459,1.022171
0.046,1.031511
0.0461,1.047616
0.0462,1.055668
0.0463,1.068552
0.0464,1.08208
0.0465,1.10044
0.0466,1.110425
0.0467,1.124275
0.0468,1.140057
0.0469,1.155196
0.047,1.168402
0.0471,1.186439
0.0472,1.196746
0.0473,1.21736
0.0474,1.231854
0.0475,1.247315
0.0476,1.26503
0.0477,1.277269
0.0478,1.292408
0.0479,1.304325
0.048,1.321396
0.0481,1.33267
0.0482,1.343299
0.0483,1.357471
0.0484,1.365201
0.0485,1.373254
0.0486,1.38034
0.0487,1.383238
0.0488,1.390969
0.0489,1.390325
0.049,1.396444
0.0491,1.398377
0.0492,1.401598
0.0493,1.405141
0.0494,1.408684
0.0495,1.410616
0.0496,1.410616
0.0497,1.412871
0.0498,1.41577
0.0499,1.413193
0.05,1.413515
0.0501,1.413837
0.0502,1.41416
0.0503,1.414804
0.0504,1.41738
0.0505,1.418669
0.0506,1.422856
0.0507,1.425755
0.0508,1.431553
0.0509,1.438961
0.051,1.440249
0.0511,1.447013
0.0512,1.451845
0.0513,1.460863
0.0514,1.462796
0.0515,1.468593
0.0516,1.473747
0.0517,1.480511
0.0518,1.484376
0.0519,1.488241
0.052,1.492751
0.0521,1.499837
0.0522,1.499837
0.0523,1.50338
0.0524,1.509822
0.0525,1.504668
0.0526,1.509822
0.0527,1.513365
0.0528,1.513687
0.0529,1.513043
0.053,1.513043
0.0531,1.51272
0.0532,1.510144
0.0533,1.507567
0.0534,1.50499
0.0535,1.500481
0.0536,1.495327
0.0537,1.490818
0.0538,1.485665
0.0539,1.486309
0.054,1.492428
0.0541,1.494039
0.0542,1.499837
0.0543,1.503702
0.0544,1.513365
0.0545,1.51884
0.0546,1.531402
0.0547,1.541065
0.0548,1.552016
0.0549,1.556525
0.055,1.564256
0.0551,1.569409
0.0552,1.568443
0.0553,1.57102
0.0554,1.568443
0.0555,1.569409
0.0556,1.568121
0.0557,1.564578
0.0558,1.562001
0.0559,1.555881
0.056,1.550406
0.0561,1.547829
0.0562,1.542675
0.0563,1.5372
0.0564,1.533334
0.0565,1.530114
0.0566,1.529469
0.0567,1.528181
0.0568,1.529147
0.0569,1.525282
0.057,1.528503
0.0571,1.527859
0.0572,1.527859
0.0573,1.526248
0.0574,1.527859
0.0575,1.523672
0.0576,1.523027
0.0577,1.516263
0.0578,1.512076
0.0579,1.507245
0.058,1.502413
0.0581,1.497904
0.0582,1.493073
0.0583,1.486631
0.0584,1.48341
0.0585,1.480189
0.0586,1.479867
0.0587,1.473425
0.0588,1.476646
0.0589,1.478256
0.059,1.48341
0.0591,1.489208
0.0592,1.498226
0.0593,1.505956
0.0594,1.521095
0.0595,1.535589
0.0596,1.55105
0.0597,1.568121
0.0598,1.583259
0.0599,1.604517
0.06,1.622877
0.0601,1.637371
0.0602,1.656053
0.0603,1.671513
0.0604,1.690195
0.0605,1.7034
0.0606,1.718539
0.0607,1.732067
0.0608,1.742696
0.0609,1.753325
0.061,1.758801
0.0611,1.769752
0.0612,1.773617
0.0613,1.776516
0.0614,1.77555
0.0615,1.774583
0.0616,1.772007
0.0617,1.768786
0.0618,1.765887
0.0619,1.756868
0.062,1.74946
0.0621,1.747849
0.0622,1.737865
0.0623,1.727558
0.0624,1.722726
0.0625,1.717895
0.0626,1.710164
0.0627,1.705333
0.0628,1.698247
0.0629,1.695348
0.063,1.699857
0.0631,1.702756
0.0632,1.710164
0.0633,1.716928
0.0634,1.720471
0.0635,1.733355
0.0636,1.73561
0.0637,1.75558
0.0638,1.761377
0.0639,1.77104
0.064,1.780381
0.0641,1.787145
0.0642,1.790688
0.0643,1.803572
0.0644,1.807759
0.0645,1.812268
0.0646,1.819354
0.0647,1.820965
0.0648,1.826441
0.0649,1.832882
0.065,1.835137
0.0651,1.843189
0.0652,1.845444
0.0653,1.851564
0.0654,1.854463
0.0655,1.862193
0.0656,1.864126
0.0657,1.875721
0.0658,1.877332
0.0659,1.883773
0.066,1.893114
0.0661,1.898912
0.0662,1.90471
0.0663,1.910507
0.0664,1.915017
0.0665,1.91405
0.0666,1.918238
0.0667,1.915017
0.0668,1.915017
0.0669,1.909541
0.067,1.902455
0.0671,1.896657
0.0672,1.888927
0.0673,1.87862
0.0674,1.869601
0.0675,1.854463
0.0676,1.846733
0.0677,1.833205
0.0678,1.822253
0.0679,1.810658
0.068,1.802283
0.0681,1.795197
0.0682,1.786179
0.0683,1.784568
0.0684,1.784568
0.0685,1.780059
0.0686,1.778126
0.0687,1.778126
0.0688,1.770074
0.0689,1.762988
0.069,1.756868
0.0691,1.752037
0.0692,1.742374
0.0693,1.733355
0.0694,1.72337
0.0695,1.712419
0.0696,1.702434
0.0697,1.695348
0.0698,1.684719
0.0699,1.677633
0.07,1.665715
0.0701,1.651543
0.0702,1.642525
0.0703,1.633184
0.0704,1.625131
0.0705,1.62191
0.0706,1.613214
0.0707,1.60806
0.0708,1.601296
0.0709,1.592922
0.071,1.586802
0.0711,1.581649
0.0712,1.57424
0.0713,1.569731
0.0714,1.569731
0.0715,1.565544
0.0716,1.5649
0.0717,1.563611
0.0718,1.563933
0.0719,1.560068
0.072,1.562323
0.0721,1.563289
0.0722,1.5649
0.0723,1.565866
0.0724,1.565544
0.0725,1.566832
0.0726,1.57102
0.0727,1.56651
0.0728,1.569731
0.0729,1.569731
0.073,1.569409
0.0731,1.571664
0.0732,1.568443
0.0733,1.563289
0.0734,1.562001
0.0735,1.55266
0.0736,1.544286
0.0737,1.529147
0.0738,1.516908
0.0739,1.506923
0.074,1.490818
0.0741,1.469238
0.0742,1.452489
0.0743,1.431875
0.0744,1.409006
0.0745,1.391613
0.0746,1.374542
0.0747,1.351995
0.0748,1.331059
0.0749,1.311089
0.075,1.289509
0.0751,1.269217
0.0752,1.246348
0.0753,1.217038
0.0754,1.191914
0.0755,1.164858
0.0756,1.136192
0.0757,1.105593
0.0758,1.072417
0.0759,1.038275
0.076,1.008643
0.0761,0.972246
0.0762,0.938748
0.0763,0.909438
0.0764,0.873363
0.0765,0.841798
0.0766,0.810555
0.0767,0.779956
0.0768,0.753866
0.0769,0.728421
0.077,0.706518
0.0771,0.691058
0.0772,0.672376
0.0773,0.659493
0.0774,0.650474
0.0775,0.642744
0.0776,0.639845
0.0777,0.638556
0.0778,0.638879
0.0779,0.642099
0.078,0.645965
0.0781,0.648863
0.0782,0.656272
0.0783,0.661747
0.0784,0.667867
0.0785,0.67141
0.0786,0.677852
0.0787,0.681073
0.0788,0.687193
0.0789,0.691702
0.079,0.694923
0.0791,0.697822
0.0792,0.700399
0.0793,0.703942
0.0794,0.704264
0.0795,0.709417
0.0796,0.71135
0.0797,0.71296
0.0798,0.713282
0.0799,0.713926
0.08,0.716181
0.0801,0.718436
0.0802,0.721013
0.0803,0.723911
0.0804,0.729065
0.0805,0.731964
0.0806,0.737117
0.0807,0.746458
0.0808,0.7529
0.0809,0.765139
0.081,0.775769
0.0811,0.788008
0.0812,0.803147
0.0813,0.817319
0.0814,0.835356
0.0815,0.84985
0.0816,0.866599
0.0817,0.884636
0.0818,0.901707
0.0819,0.919101
0.082,0.936172
0.0821,0.952276
0.0822,0.965804
0.0823,0.980298
0.0824,0.993826
0.0825,1.008643
0.0826,1.022815
0.0827,1.037953
0.0828,1.051803
0.0829,1.0605
0.083,1.074028
0.0831,1.088844
0.0832,1.098829
0.0833,1.115578
0.0834,1.126207
0.0835,1.141023
0.0836,1.154229
0.0837,1.165503
0.0838,1.17742
0.0839,1.189338
0.084,1.202866
0.0841,1.210596
0.0842,1.221869
0.0843,1.230244
0.0844,1.242483
0.0845,1.251502
0.0846,1.257622
0.0847,1.267284
0.0848,1.273404
0.0849,1.280168
0.085,1.289831
0.0851,1.295307
0.0852,1.303037
0.0853,1.317209
0.0854,1.329449
0.0855,1.344909
0.0856,1.366167
0.0857,1.383883
0.0858,1.404819
0.0859,1.425111
0.086,1.4512
0.0861,1.472459
0.0862,1.494683
0.0863,1.515941
0.0864,1.542675
0.0865,1.561035
0.0866,1.582937
0.0867,1.596787
0.0868,1.616113
0.0869,1.631573
0.087,1.642202
0.0871,1.655408
0.0872,1.666037
0.0873,1.676989
0.0874,1.683108
0.0875,1.690195
0.0876,1.694704
0.0877,1.704367
0.0878,1.709198
0.0879,1.710164
0.088,1.712741
0.0881,1.719827
0.0882,1.723692
0.0883,1.726913
0.0884,1.733033
0.0885,1.733355
0.0886,1.735288
0.0887,1.737865
0.0888,1.732711
0.0889,1.734321
0.089,1.734644
0.0891,1.733999
0.0892,1.728524
0.0893,1.728524
0.0894,1.728846
0.0895,1.726591
0.0896,1.728846
0.0897,1.730134
0.0898,1.727558
0.0899,1.72949
0.09,1.725303
0.0901,1.720794
0.0902,1.719505
0.0903,1.720471
0.0904,1.718217
0.0905,1.718539
0.0906,1.710809
0.0907,1.705977
0.0908,1.701468
0.0909,1.696959
0.091,1.691483
0.0911,1.687296
0.0912,1.683108
0.0913,1.679888
0.0914,1.677633
0.0915,1.672479
0.0916,1.672801
0.0917,1.671513
0.0918,1.66636
0.0919,1.667648
0.092,1.66024
0.0921,1.655086
0.0922,1.649933
0.0923,1.641558
0.0924,1.642202
0.0925,1.636083
0.0926,1.629963
0.0927,1.62803
0.0928,1.625131
0.0929,1.622555
0.093,1.61869
0.0931,1.614824
0.0932,1.615469
0.0933,1.613214
0.0934,1.606128
0.0935,1.604195
0.0936,1.601941
0.0937,1.589379
0.0938,1.583903
0.0939,1.570697
0.094,1.558458
0.0941,1.544286
0.0942,1.53108
0.0943,1.510466
0.0944,1.493395
0.0945,1.468916
0.0946,1.447013
0.0947,1.424789
0.0948,1.400954
0.0949,1.384527
0.095,1.361658
0.0951,1.342332
0.0952,1.32655
0.0953,1.312378
0.0954,1.299172
0.0955,1.285966
0.0956,1.279846
0.0957,1.269217
0.0958,1.263741
0.0959,1.260198
0.096,1.251824
0.0961,1.253112
0.0962,1.250536
0.0963,1.247315
0.0964,1.251824
0.0965,1.25118
0.0966,1.250858
0.0967,1.25279
0.0968,1.256333
0.0969,1.260843
0.097,1.264064
0.0971,1.269539
0.0972,1.273082
0.0973,1.28049
0.0974,1.285644
0.0975,1.289831
0.0976,1.298206
0.0977,1.305292
0.0978,1.313344
0.0979,1.322685
0.098,1.329449
0.0981,1.338789
0.0982,1.34652
0.0983,1.350385
0.0984,1.359081
0.0985,1.36198
0.0986,1.370355
0.0987,1.373576
0.0988,1.381628
0.0989,1.386782
0.099,1.392579
0.0991,1.398377
0.0992,1.405141
0.0993,1.411261
0.0994,1.417058
0.0995,1.422212
0.0996,1.429942
0.0997,1.431875
0.0998,1.436062
0.0999,1.441538
0.1,1.442826
0.1001,1.447657
0.1002,1.447657
0.1003,1.449912
0.1004,1.448624
0.1005,1.452489
0.1006,1.445725
0.1007,1.443148
0.1008,1.435418
0.1009,1.428976
0.101,1.421568
0.1011,1.417703
0.1012,1.412871
0.1013,1.409006
0.1014,1.401276
0.1015,1.394512
0.1016,1.389358
0.1017,1.384527
0.1018,1.377119
0.1019,1.373898
0.102,1.370677
0.1021,1.370033
0.1022,1.367134
0.1023,1.363269
0.1024,1.361336
0.1025,1.362947
0.1026,1.362947
0.1027,1.361658
0.1028,1.362947
0.1029,1.362302
0.103,1.361336
0.1031,1.361336
0.1032,1.361658
0.1033,1.363591
0.1034,1.365523
0.1035,1.364557
0.1036,1.361658
0.1037,1.358759
0.1038,1.351351
0.1039,1.349419
0.104,1.346842
0.1041,1.342332
0.1042,1.339112
0.1043,1.337823
0.1044,1.333958
0.1045,1.331059
0.1046,1.32816
0.1047,1.322685
0.1048,1.316243
0.1049,1.311089
0.105,1.305614
0.1051,1.302071
0.1052,1.291119
0.1053,1.285966
0.1054,1.277269
0.1055,1.26503
0.1056,1.249891
0.1057,1.237974
0.1058,1.219937
0.1059,1.204798
0.106,1.18515
0.1061,1.164214
0.1062,1.142956
0.1063,1.129428
0.1064,1.110747
0.1065,1.092709
0.1066,1.080792
0.1067,1.066942
0.1068,1.056313
0.1069,1.053414
0.107,1.047616
0.1071,1.041174
0.1072,1.036021
0.1073,1.039564
0.1074,1.040852
0.1075,1.04053
0.1076,1.04826
0.1077,1.047616
0.1078,1.051803
0.1079,1.059212
0.108,1.065653
0.1081,1.070163
0.1082,1.079181
0.1083,1.084657
0.1084,1.087878
0.1085,1.093676
0.1086,1.093998
0.1087,1.102694
0.1088,1.105593
0.1089,1.109458
0.109,1.114934
0.1091,1.118155
0.1092,1.12202
0.1093,1.12975
0.1094,1.135226
0.1095,1.142312
0.1096,1.147465
0.1097,1.153585
0.1098,1.158417
0.1099,1.16357
0.11,1.175488
0.1101,1.181285
0.1102,1.186761
0.1103,1.194813
0.1104,1.199323
0.1105,1.204476
0.1106,1.211562
0.1107,1.209307
0.1108,1.216394
0.1109,1.214783
0.111,1.215749
0.1111,1.216071
0.1112,1.215427
0.1113,1.216071
0.1114,1.214139
0.1115,1.216394
0.1116,1.21736
0.1117,1.218648
0.1118,1.218004
0.1119,1.218326
0.112,1.221869
0.1121,1.227345
0.1122,1.227667
0.1123,1.233142
0.1124,1.237974
0.1125,1.239584
0.1126,1.242805
0.1127,1.248925
0.1128,1.254079
0.1129,1.260198
0.113,1.262131
0.1131,1.266962
0.1132,1.271472
0.1133,1.275337
0.1134,1.275981
0.1135,1.281779
0.1136,1.283389
0.1137,1.286288
0.1138,1.288543
0.1139,1.295307
0.114,1.303037
0.1141,1.310123
0.1142,1.32043
0.1143,1.330093
0.1144,1.344265
0.1145,1.349096
0.1146,1.359726
0.1147,1.367134
0.1148,1.376152
0.1149,1.382272
0.115,1.390002
0.1151,1.396122
0.1152,1.402886
0.1153,1.412871
0.1154,1.418991
0.1155,1.424467
0.1156,1.428332
0.1157,1.437672
0.1158,1.442504
0.1159,1.446691
0.116,1.453133
0.1161,1.454421
0.1162,1.460219
0.1163,1.464406
0.1164,1.466339
0.1165,1.464084
0.1166,1.471814
0.1167,1.472781
0.1168,1.472137
0.1169,1.474069
0.117,1.474069
0.1171,1.477934
0.1172,1.479223
0.1173,1.485987
0.1174,1.481155
0.1175,1.485342
0.1176,1.489852
0.1177,1.492751
0.1178,1.494361
0.1179,1.501125
0.118,1.499515
0.1181,1.501769
0.1182,1.502736
0.1183,1.505312
0.1184,1.500803
0.1185,1.503702
0.1186,1.50338
0.1187,1.505634
0.1188,1.506923
0.1189,1.509822
